Time (ms),Soma Voltage (mV)
0.0,-66.0
0.025,-66.00408013850014
0.05,-66.00786090660371
0.075,-66.01141864091676
0.09999999999999999,-66.01481011452975
0.12499999999999999,-66.01807756740405
0.15,-66.02125243148092
0.17500000000000002,-66.02435809759334
0.20000000000000004,-66.02741197306699
0.22500000000000006,-66.03042701253625
0.25000000000000006,-66.03341285703934
0.2750000000000001,-66.0363766816862
0.3000000000000001,-66.0393238264739
0.3250000000000001,-66.04225826572937
0.35000000000000014,-66.0451829574624
0.37500000000000017,-66.04810010334946
0.4000000000000002,-66.05101134221015
0.4250000000000002,-66.05391789398959
0.45000000000000023,-66.05682066690797
0.47500000000000026,-66.05972033719942
0.5000000000000002,-66.06261740845252
0.5250000000000001,-66.06551225577023
0.55,-66.06840515863297
0.575,-66.07129632535467
0.5999999999999999,-66.07418591128234
0.6249999999999998,-66.0770740323399
0.6499999999999997,-66.07996077510707
0.6749999999999996,-66.08284620431992
0.6999999999999995,-66.08573036845257
0.7249999999999994,-66.08861330387091
0.7499999999999993,-66.09149503792379
0.7749999999999992,-66.09437559124332
0.7999999999999992,-66.0972549794568
0.8249999999999991,-66.1001332144607
0.849999999999999,-66.10301030536866
0.8749999999999989,-66.10588625921717
0.8999999999999988,-66.10876108149066
0.9249999999999987,-66.11163477651226
0.9499999999999986,-66.11450734773481
0.9749999999999985,-66.1173787979573
0.9999999999999984,-66.12024912948607
1.0249999999999984,-66.12311834425486
1.0499999999999983,-66.1259864439142
1.0749999999999982,-66.12885342989792
1.099999999999998,-66.13171930347279
1.124999999999998,-66.13458406577557
1.149999999999998,-66.13744771784047
1.1749999999999978,-66.14031026061988
1.1999999999999977,-66.14317169499968
1.2249999999999976,-66.1460320218108
1.2499999999999976,-66.14889124183784
1.2749999999999975,-66.15174935582566
1.2999999999999974,-66.15460636448417
1.3249999999999973,-66.15746226849213
1.3499999999999972,-66.16031706849996
1.3749999999999971,-66.16317076513194
1.399999999999997,-66.16602335898784
1.424999999999997,-66.16887485064436
1.4499999999999968,-66.17172524065603
1.4749999999999968,-66.1745745295562
1.4999999999999967,-66.17742271785762
1.5249999999999966,-66.18026980605315
1.5499999999999965,-66.18311579461613
1.5749999999999964,-66.18596068400089
1.5999999999999963,-66.18880447464313
1.6249999999999962,-66.19164716696027
1.6499999999999961,-66.1944887613517
1.674999999999996,-66.19732925819925
1.699999999999996,-66.2001686578673
1.7249999999999959,-66.20300696070312
1.7499999999999958,-66.20584416703718
1.7749999999999957,-66.20868027718335
1.7999999999999956,-66.21151529143913
1.8249999999999955,-66.21434921008596
1.8499999999999954,-66.2171820333894
1.8749999999999953,-66.2200137615994
1.8999999999999952,-66.2228443949505
1.9249999999999952,-66.22567393366207
1.949999999999995,-66.22850237793853
1.974999999999995,-66.23132972796958
1.999999999999995,-66.23415598393045
2.024999999999995,-66.23698114598201
2.0499999999999954,-66.23980521427112
2.0749999999999957,-66.24262818893071
2.099999999999996,-66.2454500700801
2.1249999999999964,-66.24827085782512
2.149999999999997,-66.25109055225838
2.174999999999997,-66.2539091534594
2.1999999999999975,-66.2567266614949
2.224999999999998,-66.25954307641891
2.2499999999999982,-66.26235839827301
2.2749999999999986,-66.26517262708653
2.299999999999999,-66.26798576287669
2.3249999999999993,-66.27079780564884
2.3499999999999996,-66.27360875539664
2.375,-66.27641861210222
2.4000000000000004,-66.27922737573637
2.4250000000000007,-66.28203504625874
2.450000000000001,-66.28484162361798
2.4750000000000014,-66.28764710775194
2.5000000000000018,-66.29045149858786
2.525000000000002,-66.2932547960425
2.5500000000000025,-66.29605700002237
2.575000000000003,-66.29885811042382
2.600000000000003,-66.30165812713327
2.6250000000000036,-66.30445705002732
2.650000000000004,-66.307254878973
2.6750000000000043,-66.31005161382782
2.7000000000000046,-66.31284725444003
2.725000000000005,-66.31564180064869
2.7500000000000053,-66.31843525228388
2.7750000000000057,-66.32122760916683
2.800000000000006,-66.32401887111008
2.8250000000000064,-66.32680903791767
2.8500000000000068,-66.32959810938517
2.875000000000007,-66.33238608529996
2.9000000000000075,-66.3351729654413
2.925000000000008,-66.33795874958048
2.950000000000008,-66.34074343748098
2.9750000000000085,-66.3435270288986
3.000000000000009,-66.3463095235816
3.0250000000000092,-66.34909092127081
3.0500000000000096,-66.35187122169984
3.07500000000001,-66.35465042459509
3.1000000000000103,-66.35742852967601
3.1250000000000107,-66.36020553665516
3.150000000000011,-66.36298144523832
3.1750000000000114,-66.36575625512467
3.2000000000000117,-66.36852996600689
3.225000000000012,-66.37130257757129
3.2500000000000124,-66.37407408949791
3.275000000000013,-66.37684450146068
3.300000000000013,-66.3796138131275
3.3250000000000135,-66.38238202416039
3.350000000000014,-66.38514913421557
3.375000000000014,-66.38791514294361
3.4000000000000146,-66.39068004998953
3.425000000000015,-66.39344385499291
3.4500000000000153,-66.396206557588
3.4750000000000156,-66.39896815740383
3.500000000000016,-66.40172865406433
3.5250000000000163,-66.40448804718841
3.5500000000000167,-66.40724633639009
3.575000000000017,-66.4100035212786
3.6000000000000174,-66.41275960145848
3.6250000000000178,-66.41551457652966
3.650000000000018,-66.41826844608761
3.6750000000000185,-66.42102120972339
3.700000000000019,-66.42377286702379
3.725000000000019,-66.42652341757137
3.7500000000000195,-66.42927286094462
3.77500000000002,-66.43202119671801
3.8000000000000203,-66.43476842446209
3.8250000000000206,-66.43751454374362
3.850000000000021,-66.44025955412557
3.8750000000000213,-66.44300345516734
3.9000000000000217,-66.44574624642473
3.925000000000022,-66.44848792745009
3.9500000000000224,-66.45122849779239
3.9750000000000227,-66.4539679569973
4.000000000000023,-66.4567063046073
4.0250000000000234,-66.45944354016171
4.050000000000024,-66.46217966319685
4.075000000000024,-66.46491467324603
4.1000000000000245,-66.46764856983971
4.125000000000025,-66.47038135250553
4.150000000000025,-66.4731130207684
4.175000000000026,-66.47584357415059
4.200000000000026,-66.47857301217178
4.225000000000026,-66.48130133434918
4.250000000000027,-66.48402854019754
4.275000000000027,-66.4867546292293
4.300000000000027,-66.48947960095455
4.325000000000028,-66.49220345488125
4.350000000000028,-66.49492619051517
4.375000000000028,-66.49764780736002
4.400000000000029,-66.50036830491752
4.425000000000029,-66.50308768268744
4.4500000000000295,-66.50580594016769
4.47500000000003,-66.50852307685437
4.50000000000003,-66.51123909224188
4.5250000000000306,-66.5139539858229
4.550000000000031,-66.51666775708851
4.575000000000031,-66.51938040552827
4.600000000000032,-66.52209193063021
4.625000000000032,-66.52480233188098
4.650000000000032,-66.52751160876583
4.675000000000033,-66.53021976076874
4.700000000000033,-66.5329267873724
4.725000000000033,-66.53563268805833
4.750000000000034,-66.53833746230691
4.775000000000034,-66.54104110959747
4.8000000000000345,-66.54374362940827
4.825000000000035,-66.54644502121664
4.850000000000035,-66.54914528449898
4.8750000000000355,-66.55184441873082
4.900000000000036,-66.55454242338692
4.925000000000036,-66.55723929794124
4.950000000000037,-66.55993504186704
4.975000000000037,-66.56262965463694
5.000000000000037,-66.56532313572293
5.025000000000038,-66.5680154845965
5.050000000000038,-66.57070670072855
5.075000000000038,-66.57339678358959
5.100000000000039,-66.57608573264964
5.125000000000039,-66.57877354737845
5.150000000000039,-66.58146022724534
5.17500000000004,-66.58414577171942
5.20000000000004,-66.58683018026956
5.2250000000000405,-66.5895134523644
5.250000000000041,-66.59219558747249
5.275000000000041,-66.59487658506222
5.300000000000042,-66.59755644460198
5.325000000000042,-66.60023516556006
5.350000000000042,-66.60291274740484
5.375000000000043,-66.60558918960473
5.400000000000043,-66.60826449162823
5.425000000000043,-66.610938652944
5.450000000000044,-66.61361167302086
5.475000000000044,-66.61628355132785
5.500000000000044,-66.61895428733426
5.525000000000045,-66.62162388050969
5.550000000000045,-66.62429233032402
5.5750000000000455,-66.62695963624753
5.600000000000046,-66.62962579775089
5.625000000000046,-66.6322908143052
5.6500000000000465,-66.634954685382
5.675000000000047,-66.63761741045336
5.700000000000047,-66.64027898899188
5.725000000000048,-66.64293942047073
5.750000000000048,-66.64559870436364
5.775000000000048,-66.64825684014501
5.800000000000049,-66.65091382728988
5.825000000000049,-66.653569665274
5.850000000000049,-66.65622435357383
5.87500000000005,-66.65887789166658
5.90000000000005,-66.66153027903023
5.9250000000000504,-66.6641815151436
5.950000000000051,-66.66683159948633
5.975000000000051,-66.66948053153895
6.0000000000000515,-66.67212831078285
6.025000000000052,-66.67477493670037
6.050000000000052,-66.67742040877481
6.075000000000053,-66.6800647264904
6.100000000000053,-66.6827078893324
6.125000000000053,-66.68534989678713
6.150000000000054,-66.6879907483419
6.175000000000054,-66.69063044348515
6.200000000000054,-66.69326898170641
6.225000000000055,-66.69590636249632
6.250000000000055,-66.6985425853467
6.275000000000055,-66.70117764975052
6.300000000000056,-66.70381155520195
6.325000000000056,-66.70644430119641
6.3500000000000565,-66.70907588723053
6.375000000000057,-66.7117063128022
6.400000000000057,-66.71433557741064
6.4250000000000576,-66.71696368055633
6.450000000000058,-66.7195906217411
6.475000000000058,-66.72221640046814
6.500000000000059,-66.724841016242
6.525000000000059,-66.7274644685686
6.550000000000059,-66.73008675695529
6.57500000000006,-66.73270788091084
6.60000000000006,-66.73532783994548
6.62500000000006,-66.7379466335709
6.650000000000061,-66.74056426130026
6.675000000000061,-66.74318072264825
6.7000000000000615,-66.74579601713106
6.725000000000062,-66.74841014426642
6.750000000000062,-66.7510231035736
6.7750000000000625,-66.75363489457348
6.800000000000063,-66.7562455167885
6.825000000000063,-66.7588549697427
6.850000000000064,-66.76146325296178
6.875000000000064,-66.76407036597301
6.900000000000064,-66.76667630830536
6.925000000000065,-66.76928107948946
6.950000000000065,-66.77188467905759
6.975000000000065,-66.77448710654379
7.000000000000066,-66.77708836148373
7.025000000000066,-66.77968844341488
7.050000000000066,-66.78228735187639
7.075000000000067,-66.78488508640919
7.100000000000067,-66.78748164655597
7.1250000000000675,-66.79007703186122
7.150000000000068,-66.79267124187116
7.175000000000068,-66.79526427613388
7.200000000000069,-66.79785613419924
7.225000000000069,-66.80044681561895
7.250000000000069,-66.80303631994657
7.27500000000007,-66.80562464673747
7.30000000000007,-66.80821179554893
7.32500000000007,-66.81079776594008
7.350000000000071,-66.81338255747194
7.375000000000071,-66.81596616970742
7.400000000000071,-66.81854860221137
7.425000000000072,-66.82112985455048
7.450000000000072,-66.82370992629345
7.4750000000000725,-66.82628881701086
7.500000000000073,-66.82886652627528
7.525000000000073,-66.8314430536612
7.5500000000000735,-66.8340183987451
7.575000000000074,-66.83659256110542
7.600000000000074,-66.83916554032258
7.625000000000075,-66.841737335979
7.650000000000075,-66.84430794765912
7.675000000000075,-66.84687737494934
7.700000000000076,-66.84944561743812
7.725000000000076,-66.85201267471594
7.750000000000076,-66.85457854637528
7.775000000000077,-66.8571432320107
7.800000000000077,-66.8597067312188
7.8250000000000774,-66.8622690435982
7.850000000000078,-66.86483016874965
7.875000000000078,-66.8673901062759
7.9000000000000785,-66.86994885578183
7.925000000000079,-66.87250641687436
7.950000000000079,-66.87506278916253
7.97500000000008,-66.87761797225744
8.00000000000008,-66.88017196577233
8.025000000000079,-66.88272476932254
8.050000000000077,-66.8852763825255
8.075000000000076,-66.88782680500078
8.100000000000074,-66.89037603637007
8.125000000000073,-66.89292407625719
8.150000000000071,-66.89547092428808
8.17500000000007,-66.89801658009084
8.200000000000069,-66.90056104329571
8.225000000000067,-66.90310431353508
8.250000000000066,-66.9056463904435
8.275000000000064,-66.90818727365763
8.300000000000063,-66.91072696281638
8.325000000000061,-66.91326545756075
8.35000000000006,-66.91580275753397
8.375000000000059,-66.91833886238139
8.400000000000057,-66.92087377175059
8.425000000000056,-66.9234074852913
8.450000000000054,-66.92594000265545
8.475000000000053,-66.92847132349715
8.500000000000052,-66.93100144747271
8.52500000000005,-66.93353037424065
8.550000000000049,-66.93605810346166
8.575000000000047,-66.93858463479866
8.600000000000046,-66.94110996791676
8.625000000000044,-66.94363410248329
8.650000000000043,-66.94615703816777
8.675000000000042,-66.94867877464195
8.70000000000004,-66.9511993115798
8.725000000000039,-66.9537186486575
8.750000000000037,-66.95623678555344
8.775000000000036,-66.95875372194824
8.800000000000034,-66.96126945752476
8.825000000000033,-66.96378399196807
8.850000000000032,-66.96629732496547
8.87500000000003,-66.96880945620649
8.900000000000029,-66.97132038538288
8.925000000000027,-66.97383011218866
8.950000000000026,-66.97633863632005
8.975000000000025,-66.9788459574755
9.000000000000023,-66.98135207535573
9.025000000000022,-66.98385698966366
9.05000000000002,-66.98636070010448
9.075000000000019,-66.9888632063856
9.100000000000017,-66.99136450821668
9.125000000000016,-66.9938646053096
9.150000000000015,-66.99636349737851
9.175000000000013,-66.9988611841398
9.200000000000012,-67.00135766531209
9.22500000000001,-67.00385294061624
9.250000000000009,-67.00634700977537
9.275000000000007,-67.00883987251483
9.300000000000006,-67.01133152856221
9.325000000000005,-67.01382197764737
9.350000000000003,-67.01631121950237
9.375000000000002,-67.01879925386157
9.4,-67.02128608046152
9.424999999999999,-67.02377169904105
9.449999999999998,-67.0262561093412
9.474999999999996,-67.02873931110531
9.499999999999995,-67.0312213040789
9.524999999999993,-67.03370208800975
9.549999999999992,-67.03618166264789
9.57499999999999,-67.0386600277456
9.599999999999989,-67.0411371830574
9.624999999999988,-67.04361312834001
9.649999999999986,-67.04608786335243
9.674999999999985,-67.04856138785588
9.699999999999983,-67.05103370161382
9.724999999999982,-67.05350480439193
9.74999999999998,-67.05597469595817
9.774999999999979,-67.05844337608268
9.799999999999978,-67.06091084453786
9.824999999999976,-67.06337710109833
9.849999999999975,-67.06584214554093
9.874999999999973,-67.06830597764475
9.899999999999972,-67.07076859719112
9.92499999999997,-67.07323000396354
9.949999999999969,-67.07569019774778
9.974999999999968,-67.07814917833181
9.999999999999966,-67.08060694550583
10.024999999999965,-67.08306349906225
10.049999999999963,-67.08551883879569
10.074999999999962,-67.08797296450301
10.09999999999996,-67.09042587598326
10.12499999999996,-67.09287757303771
10.149999999999958,-67.09532805546984
10.174999999999956,-67.09777732308532
10.199999999999955,-67.10022537569206
10.224999999999953,-67.10267221310013
10.249999999999952,-67.10511783512183
10.27499999999995,-67.10756224157164
10.29999999999995,-67.11000543226625
10.324999999999948,-67.11244740702453
10.349999999999946,-67.11488816566757
10.374999999999945,-67.1173277080186
10.399999999999944,-67.11976603390309
10.424999999999942,-67.12220314314864
10.44999999999994,-67.12463903558506
10.47499999999994,-67.12707371104436
10.499999999999938,-67.12950716936069
10.524999999999936,-67.13193941037038
10.549999999999935,-67.13437043391194
10.574999999999934,-67.13680023982606
10.599999999999932,-67.13922882795556
10.62499999999993,-67.14165619814545
10.64999999999993,-67.1440823502429
10.674999999999928,-67.14650728409723
10.699999999999926,-67.1489309995599
10.724999999999925,-67.15135349648453
10.749999999999924,-67.15377477472691
10.774999999999922,-67.15619483414496
10.79999999999992,-67.15861367459873
10.82499999999992,-67.16103129595041
10.849999999999918,-67.16344769806435
10.874999999999917,-67.16586288080701
10.899999999999915,-67.168276844047
10.924999999999914,-67.17068958765502
10.949999999999912,-67.17310111150393
10.97499999999991,-67.17551141546868
10.99999999999991,-67.17792049942636
11.024999999999908,-67.1803283632562
11.049999999999907,-67.18273500683945
11.074999999999905,-67.18514043005956
11.099999999999904,-67.18754463280203
11.124999999999902,-67.18994761495448
11.1499999999999,-67.19234937640663
11.1749999999999,-67.19474991705026
11.199999999999898,-67.1971492367793
11.224999999999897,-67.1995473354897
11.249999999999895,-67.20194421307954
11.274999999999894,-67.20433986944896
11.299999999999892,-67.20673430450017
11.324999999999891,-67.20912751813748
11.34999999999989,-67.21151951026722
11.374999999999888,-67.21391028079783
11.399999999999887,-67.21629982963978
11.424999999999885,-67.21868815670561
11.449999999999884,-67.22107526190993
11.474999999999882,-67.22346114516937
11.499999999999881,-67.22584580640262
11.52499999999988,-67.2282292455304
11.549999999999878,-67.2306114624755
11.574999999999877,-67.23299245716271
11.599999999999875,-67.23537222951886
11.624999999999874,-67.23775077947282
11.649999999999872,-67.24012810695548
11.674999999999871,-67.24250421189973
11.69999999999987,-67.24487909424049
11.724999999999868,-67.2472527539147
11.749999999999867,-67.24962519086128
11.774999999999865,-67.2519964050212
11.799999999999864,-67.25436639633737
11.824999999999863,-67.25673516475476
11.849999999999861,-67.25910271022026
11.87499999999986,-67.26146903268281
11.899999999999858,-67.2638341320933
11.924999999999857,-67.2661980084046
11.949999999999855,-67.26856066157157
11.974999999999854,-67.27092209155104
11.999999999999853,-67.2732822983018
12.024999999999851,-67.27564128178459
12.04999999999985,-67.27799904196215
12.074999999999848,-67.28035557879913
12.099999999999847,-67.28271089226216
12.124999999999845,-67.28506498231981
12.149999999999844,-67.28741784894258
12.174999999999843,-67.28976949210292
12.199999999999841,-67.29211991177522
12.22499999999984,-67.29446910793578
12.249999999999838,-67.29681708056285
12.274999999999837,-67.29916382963658
12.299999999999836,-67.30150935513906
12.324999999999834,-67.30385365705426
12.349999999999833,-67.3061967353681
12.374999999999831,-67.30853859006838
12.39999999999983,-67.3108792211448
12.424999999999828,-67.31321862858897
12.449999999999827,-67.31555681239438
12.474999999999826,-67.3178937725564
12.499999999999824,-67.32022950907232
12.524999999999823,-67.32256402194126
12.549999999999821,-67.32489731116425
12.57499999999982,-67.32722937674417
12.599999999999818,-67.32956021868578
12.624999999999817,-67.3318898369957
12.649999999999816,-67.3342182316824
12.674999999999814,-67.33654540275622
12.699999999999813,-67.33887135022933
12.724999999999811,-67.34119607411574
12.74999999999981,-67.34351957443134
12.774999999999809,-67.34584185119381
12.799999999999807,-67.3481629044227
12.824999999999806,-67.35048273413933
12.849999999999804,-67.35280134036691
12.874999999999803,-67.35511872313043
12.899999999999801,-67.3574348824567
12.9249999999998,-67.35974981837435
12.949999999999799,-67.3620635309138
12.974999999999797,-67.36437602010729
12.999999999999796,-67.36668728598882
13.024999999999794,-67.36899732859423
13.049999999999793,-67.37130614796112
13.074999999999791,-67.37361374412887
13.09999999999979,-67.37592011713868
13.124999999999789,-67.37822526703344
