Time (ms),Soma Voltage (mV)
0.0,-66.0
0.025,-65.99530412129315
0.05,-65.9937069945131
0.075,-65.99389290090338
0.09999999999999999,-65.99511258827158
0.12499999999999999,-65.99693886626426
0.15,-65.99912769024749
0.17500000000000002,-66.00153919602774
0.20000000000000004,-66.00409280955495
0.22500000000000006,-66.00674172546259
0.25000000000000006,-66.00945839563396
0.2750000000000001,-66.0122262765028
0.3000000000000001,-66.01503513429986
0.3250000000000001,-66.01787837300452
0.35000000000000014,-66.02075151229575
0.37500000000000017,-66.02365131940688
0.4000000000000002,-66.02657531287035
0.4250000000000002,-66.0295214778319
0.45000000000000023,-66.0324881017906
0.47500000000000026,-66.03547367894447
0.5000000000000002,-66.03847685367555
0.5250000000000001,-66.04149638641562
0.55,-66.04453113235803
0.575,-66.04758002758803
0.5999999999999999,-66.05064207953895
0.6249999999999998,-66.05371636000983
0.6499999999999997,-66.05680199973465
0.6749999999999996,-66.05989818392368
0.6999999999999995,-66.06300414844176
0.7249999999999994,-66.06611917642775
0.7499999999999993,-66.06924259523889
0.7749999999999992,-66.07237377364987
0.7999999999999992,-66.07551211926165
0.8249999999999991,-66.07865707609109
0.849999999999999,-66.08180812232095
0.8749999999999989,-66.08496476819492
0.8999999999999988,-66.08812655404589
0.9249999999999987,-66.09129304844748
0.9499999999999986,-66.09446384648042
0.9749999999999985,-66.09763856810592
0.9999999999999984,-66.10081685663931
1.0249999999999984,-66.10399837731764
1.0499999999999983,-66.10718281595517
1.0749999999999982,-66.11036987768153
1.099999999999998,-66.11355928575728
1.124999999999998,-66.1167507804621
1.149999999999998,-66.11994411805128
1.1749999999999978,-66.12313906977617
1.1999999999999977,-66.12633542096466
1.2249999999999976,-66.12953297015815
1.2499999999999976,-66.13273152830136
1.2749999999999975,-66.13593091798187
1.2999999999999974,-66.13913097271625
1.3249999999999973,-66.14233153628003
1.3499999999999972,-66.14553246207869
1.3749999999999971,-66.14873361255722
1.399999999999997,-66.15193485864594
1.424999999999997,-66.15513607924024
1.4499999999999968,-66.1583371607122
1.4749999999999968,-66.16153799645224
1.4999999999999967,-66.16473848643882
1.5249999999999966,-66.16793853683451
1.5499999999999965,-66.17113805960682
1.5749999999999964,-66.17433697217231
1.5999999999999963,-66.1775351970625
1.6249999999999962,-66.18073266161026
1.6499999999999961,-66.18392929765547
1.674999999999996,-66.18712504126862
1.699999999999996,-66.19031983249145
1.7249999999999959,-66.19351361509352
1.7499999999999958,-66.19670633634357
1.7749999999999957,-66.19989794679499
1.7999999999999956,-66.20308840008448
1.8249999999999955,-66.20627765274294
1.8499999999999954,-66.20946566401804
1.8749999999999953,-66.21265239570768
1.8999999999999952,-66.21583781200353
1.9249999999999952,-66.21902187934437
1.949999999999995,-66.22220456627821
1.974999999999995,-66.22538584333303
1.999999999999995,-66.22856568289535
2.024999999999995,-66.23174405909627
2.0499999999999954,-66.23492094770448
2.0749999999999957,-66.2380963260259
2.099999999999996,-66.24127017280935
2.1249999999999964,-66.24444246815816
2.149999999999997,-66.24761319344702
2.174999999999997,-66.2507823312441
2.1999999999999975,-66.2539498652378
2.224999999999998,-66.25711578016815
2.2499999999999982,-66.26028006176222
2.2749999999999986,-66.26344269667365
2.299999999999999,-66.26660367242584
2.3249999999999993,-66.2697629773586
2.3499999999999996,-66.27292060057806
2.375,-66.27607653190974
2.4000000000000004,-66.27923076185435
2.4250000000000007,-66.2823832815465
2.450000000000001,-66.28553408271573
2.4750000000000014,-66.28868315765004
2.5000000000000018,-66.2918304991617
2.525000000000002,-66.29497610055506
2.5500000000000025,-66.29811995559636
2.575000000000003,-66.30126205848545
2.600000000000003,-66.30440240382913
2.6250000000000036,-66.30754098661629
2.650000000000004,-66.31067780219439
2.6750000000000043,-66.31381284624754
2.7000000000000046,-66.31694611477579
2.725000000000005,-66.3200776040758
2.7500000000000053,-66.32320731072267
2.7750000000000057,-66.32633523155279
2.800000000000006,-66.32946136364788
2.8250000000000064,-66.33258570431994
2.8500000000000068,-66.33570825109709
2.875000000000007,-66.33882900171038
2.9000000000000075,-66.34194795408129
2.925000000000008,-66.34506510631007
2.950000000000008,-66.34818045666482
2.9750000000000085,-66.3512940035711
3.000000000000009,-66.35440574560238
3.0250000000000092,-66.3575156814709
3.0500000000000096,-66.36062381001922
3.07500000000001,-66.36373013021216
3.1000000000000103,-66.36683464112939
3.1250000000000107,-66.36993734195828
3.150000000000011,-66.37303823198741
3.1750000000000114,-66.3761373106003
3.2000000000000117,-66.37923457726959
3.225000000000012,-66.3823300315516
3.2500000000000124,-66.38542367308122
3.275000000000013,-66.38851550156701
3.300000000000013,-66.39160551678681
3.3250000000000135,-66.39469371858337
3.350000000000014,-66.39778010686047
3.375000000000014,-66.40086468157911
3.4000000000000146,-66.40394744275405
3.425000000000015,-66.4070283904505
3.4500000000000153,-66.41010752478104
3.4750000000000156,-66.41318484590269
3.500000000000016,-66.41626035401423
3.5250000000000163,-66.41933404935358
3.5500000000000167,-66.4224059321955
3.575000000000017,-66.42547600284925
3.6000000000000174,-66.42854426165651
3.6250000000000178,-66.43161070898938
3.650000000000018,-66.43467534524858
3.6750000000000185,-66.43773817086159
3.700000000000019,-66.44079918628111
3.725000000000019,-66.4438583919835
3.7500000000000195,-66.44691578846727
3.77500000000002,-66.4499713762518
3.8000000000000203,-66.45302515587603
3.8250000000000206,-66.45607712789732
3.850000000000021,-66.45912729289019
3.8750000000000213,-66.46217565144542
3.9000000000000217,-66.46522220416901
3.925000000000022,-66.46826695168119
3.9500000000000224,-66.47130989461563
3.9750000000000227,-66.4743510336186
4.000000000000023,-66.47739036934819
4.0250000000000234,-66.48042790247356
4.050000000000024,-66.48346363367438
4.075000000000024,-66.48649756364004
4.1000000000000245,-66.48952969306916
4.125000000000025,-66.49256002266898
4.150000000000025,-66.4955885531549
4.175000000000026,-66.4986152852499
4.200000000000026,-66.50164021968413
4.225000000000026,-66.50466335719449
4.250000000000027,-66.50768469852417
4.275000000000027,-66.51070424442231
4.300000000000027,-66.51372199564362
4.325000000000028,-66.51673795294808
4.350000000000028,-66.51975211710055
4.375000000000028,-66.52276448887055
4.400000000000029,-66.52577506903194
4.425000000000029,-66.52878385836266
4.4500000000000295,-66.53179085764451
4.47500000000003,-66.53479606766288
4.50000000000003,-66.53779948920658
4.5250000000000306,-66.54080112306758
4.550000000000031,-66.54380097004088
4.575000000000031,-66.54679903092429
4.600000000000032,-66.54979530651828
4.625000000000032,-66.55278979762579
4.650000000000032,-66.55578250505215
4.675000000000033,-66.55877342960487
4.700000000000033,-66.56176257209354
4.725000000000033,-66.56474993332972
4.750000000000034,-66.56773551412681
4.775000000000034,-66.5707193152999
4.8000000000000345,-66.57370133766577
4.825000000000035,-66.5766815820427
4.850000000000035,-66.57966004925042
4.8750000000000355,-66.58263674011003
4.900000000000036,-66.58561165544393
4.925000000000036,-66.58858479607566
4.950000000000037,-66.59155616283
4.975000000000037,-66.59452575653272
5.000000000000037,-66.59749357801061
5.025000000000038,-66.60045962809147
5.050000000000038,-66.60342390760395
5.075000000000038,-66.60638641737756
5.100000000000039,-66.60934715824263
5.125000000000039,-66.6123061310302
5.150000000000039,-66.61526333657206
5.17500000000004,-66.61821877570067
5.20000000000004,-66.62117244924913
5.2250000000000405,-66.62412435805112
5.250000000000041,-66.62707450294089
5.275000000000041,-66.63002288475325
5.300000000000042,-66.6329695043235
5.325000000000042,-66.63591436248743
5.350000000000042,-66.63885746008125
5.375000000000043,-66.64179879794166
5.400000000000043,-66.6447383769057
5.425000000000043,-66.64767619781087
5.450000000000044,-66.65061226149494
5.475000000000044,-66.6535465687961
5.500000000000044,-66.65647912055286
5.525000000000045,-66.659409917604
5.550000000000045,-66.66233896078863
5.5750000000000455,-66.66526625094612
5.600000000000046,-66.66819178891612
5.625000000000046,-66.67111557553854
5.6500000000000465,-66.67403761165347
5.675000000000047,-66.6769578981013
5.700000000000047,-66.6798764357226
5.725000000000048,-66.68279322535815
5.750000000000048,-66.68570826784892
5.775000000000048,-66.68862156403608
5.800000000000049,-66.69153311476094
5.825000000000049,-66.69444292086503
5.850000000000049,-66.69735098318999
5.87500000000005,-66.70025730257764
5.90000000000005,-66.70316187986994
5.9250000000000504,-66.70606471590897
5.950000000000051,-66.70896581153697
5.975000000000051,-66.71186516759629
6.0000000000000515,-66.71476278492939
6.025000000000052,-66.71765866437886
6.050000000000052,-66.72055280678738
6.075000000000053,-66.72344521299776
6.100000000000053,-66.72633588385288
6.125000000000053,-66.72922482019572
6.150000000000054,-66.73211202286934
6.175000000000054,-66.73499749271691
6.200000000000054,-66.73788123058168
6.225000000000055,-66.74076323730694
6.250000000000055,-66.74364351373607
6.275000000000055,-66.74652206071256
6.300000000000056,-66.74939887907992
6.325000000000056,-66.75227396968171
6.3500000000000565,-66.75514733336159
6.375000000000057,-66.75801897096326
6.400000000000057,-66.76088888333047
6.4250000000000576,-66.76375707130703
6.450000000000058,-66.76662353573678
6.475000000000058,-66.76948827746364
6.500000000000059,-66.77235129733153
6.525000000000059,-66.77521259618443
6.550000000000059,-66.77807217486638
6.57500000000006,-66.78093003422141
6.60000000000006,-66.78378617509364
6.62500000000006,-66.78664059832717
6.650000000000061,-66.78949330476615
6.675000000000061,-66.79234429525476
6.7000000000000615,-66.79519357063721
6.725000000000062,-66.79804113175771
6.750000000000062,-66.80088697946051
6.7750000000000625,-66.80373111458988
6.800000000000063,-66.80657353799012
6.825000000000063,-66.80941425050551
6.850000000000064,-66.81225325298037
6.875000000000064,-66.81509054625901
6.900000000000064,-66.8179261311858
6.925000000000065,-66.82076000860506
6.950000000000065,-66.82359217936117
6.975000000000065,-66.82642264429848
7.000000000000066,-66.82925140426133
7.025000000000066,-66.83207846009412
7.050000000000066,-66.83490381264122
7.075000000000067,-66.83772746274697
7.100000000000067,-66.84054941125576
7.1250000000000675,-66.84336965901196
7.150000000000068,-66.8461882068599
7.175000000000068,-66.84900505564397
7.200000000000069,-66.85182020620849
7.225000000000069,-66.8546336593978
7.250000000000069,-66.85744541605625
7.27500000000007,-66.86025547702813
7.30000000000007,-66.86306384315776
7.32500000000007,-66.86587051528943
7.350000000000071,-66.8686754942674
7.375000000000071,-66.87147878093594
7.400000000000071,-66.87428037613928
7.425000000000072,-66.87708028072166
7.450000000000072,-66.87987849552725
7.4750000000000725,-66.88267502140025
7.500000000000073,-66.88546985918478
7.525000000000073,-66.88826300972501
7.5500000000000735,-66.89105447386501
7.575000000000074,-66.89384425244889
7.600000000000074,-66.89663234632067
7.625000000000075,-66.89941875632438
7.650000000000075,-66.902203483304
7.675000000000075,-66.9049865281035
7.700000000000076,-66.9077678915668
7.725000000000076,-66.91054757453779
7.750000000000076,-66.9133255778603
7.775000000000077,-66.91610190237819
7.800000000000077,-66.9188765489352
7.8250000000000774,-66.92164951837509
7.850000000000078,-66.92442081154157
7.875000000000078,-66.92719042927827
7.9000000000000785,-66.92995837242883
7.925000000000079,-66.93272464183681
7.950000000000079,-66.93548923834577
7.97500000000008,-66.93825216279915
8.00000000000008,-66.94101341604039
8.025000000000079,-66.94377299891289
8.050000000000077,-66.94653091225999
8.075000000000076,-66.94928715692497
8.100000000000074,-66.95204173375106
8.125000000000073,-66.95479464358145
8.150000000000071,-66.95754588725927
8.17500000000007,-66.96029546562761
8.200000000000069,-66.96304337952947
8.225000000000067,-66.9657896298078
8.250000000000066,-66.96853421730552
8.275000000000064,-66.97127714286547
8.300000000000063,-66.97401840733043
8.325000000000061,-66.97675801154313
8.35000000000006,-66.97949595634621
8.375000000000059,-66.9822322425823
8.400000000000057,-66.9849668710939
8.425000000000056,-66.98769984272349
8.450000000000054,-66.99043115831346
8.475000000000053,-66.99316081870614
8.500000000000052,-66.9958888247438
8.52500000000005,-66.99861517726862
8.550000000000049,-67.00133987712273
8.575000000000047,-67.00406292514818
8.600000000000046,-67.00678432218693
8.625000000000044,-67.00950406908089
8.650000000000043,-67.01222216667189
8.675000000000042,-67.01493861580167
8.70000000000004,-67.0176534173119
8.725000000000039,-67.0203665720442
8.750000000000037,-67.02307808084005
8.775000000000036,-67.02578794454091
8.800000000000034,-67.02849616398811
8.825000000000033,-67.03120274002293
8.850000000000032,-67.03390767348657
8.87500000000003,-67.0366109652201
8.900000000000029,-67.03931261606458
8.925000000000027,-67.04201262686091
8.950000000000026,-67.04471099844994
8.975000000000025,-67.04740773167242
9.000000000000023,-67.05010282736902
9.025000000000022,-67.0527962863803
9.05000000000002,-67.05548810954676
9.075000000000019,-67.05817829770879
9.100000000000017,-67.06086685170669
9.125000000000016,-67.06355377238066
9.150000000000015,-67.0662390605708
9.175000000000013,-67.06892271711712
9.200000000000012,-67.07160474285953
9.22500000000001,-67.07428513863788
9.250000000000009,-67.07696390529185
9.275000000000007,-67.07964104366107
9.300000000000006,-67.08231655458506
9.325000000000005,-67.08499043890323
9.350000000000003,-67.0876626974549
9.375000000000002,-67.09033333107926
9.4,-67.09300234061543
9.424999999999999,-67.09566972690239
9.449999999999998,-67.09833549077902
9.474999999999996,-67.10099963308413
9.499999999999995,-67.10366215465638
9.524999999999993,-67.10632305633432
9.549999999999992,-67.10898233895642
9.57499999999999,-67.11164000336102
9.599999999999989,-67.11429605038634
9.624999999999988,-67.11695048087051
9.649999999999986,-67.11960329565153
9.674999999999985,-67.12225449556729
9.699999999999983,-67.12490408145555
9.724999999999982,-67.12755205415397
9.74999999999998,-67.13019841450007
9.774999999999979,-67.1328431633313
9.799999999999978,-67.13548630148495
9.824999999999976,-67.13812782979818
9.849999999999975,-67.14076774910806
9.874999999999973,-67.14340606025154
9.899999999999972,-67.1460427640654
9.92499999999997,-67.14867786138635
9.949999999999969,-67.15131135305094
9.974999999999968,-67.15394323989563
9.999999999999966,-67.15657352275672
10.024999999999965,-67.15920220247038
10.049999999999963,-67.16182927987268
10.074999999999962,-67.16445475579954
10.09999999999996,-67.16707863108677
10.12499999999996,-67.16970090657001
10.149999999999958,-67.17232158308482
10.174999999999956,-67.17494066146661
10.199999999999955,-67.17755814255061
10.224999999999953,-67.18017402717197
10.249999999999952,-67.18278831616571
10.27499999999995,-67.18540101036668
10.29999999999995,-67.18801211060959
10.324999999999948,-67.19062161772905
10.349999999999946,-67.19322953255951
10.374999999999945,-67.19583585593527
10.399999999999944,-67.19844058869052
10.424999999999942,-67.20104373165927
10.44999999999994,-67.2036452856754
10.47499999999994,-67.2062452515727
10.499999999999938,-67.20884363018473
10.524999999999936,-67.21144042234498
10.549999999999935,-67.21403562888675
10.574999999999934,-67.2166292506432
10.599999999999932,-67.21922128844737
10.62499999999993,-67.22181174313212
10.64999999999993,-67.2244006155302
10.674999999999928,-67.22698790647416
10.699999999999926,-67.22957361679646
10.724999999999925,-67.23215774732935
10.749999999999924,-67.23474029890497
10.774999999999922,-67.23732127235529
10.79999999999992,-67.23990066851213
10.82499999999992,-67.24247848820717
10.849999999999918,-67.24505473227191
10.874999999999917,-67.24762940153772
10.899999999999915,-67.25020249683581
10.924999999999914,-67.25277401899721
10.949999999999912,-67.25534396885283
10.97499999999991,-67.25791234723339
10.99999999999991,-67.26047915496945
11.024999999999908,-67.26304439289143
11.049999999999907,-67.2656080618296
11.074999999999905,-67.26817016261404
11.099999999999904,-67.27073069607468
11.124999999999902,-67.27328966304128
11.1499999999999,-67.27584706434345
11.1749999999999,-67.27840290081063
11.199999999999898,-67.2809571732721
11.224999999999897,-67.28350988255696
11.249999999999895,-67.28606102949414
11.274999999999894,-67.28861061491243
11.299999999999892,-67.29115863964044
11.324999999999891,-67.29370510450661
11.34999999999989,-67.29625001033922
11.374999999999888,-67.29879335796635
11.399999999999887,-67.30133514821593
11.424999999999885,-67.30387538191573
11.449999999999884,-67.30641405989333
11.474999999999882,-67.30895118297614
11.499999999999881,-67.31148675199141
11.52499999999988,-67.31402076776621
11.549999999999878,-67.31655323112741
11.574999999999877,-67.31908414290174
11.599999999999875,-67.32161350391574
11.624999999999874,-67.32414131499577
11.649999999999872,-67.326667576968
11.674999999999871,-67.32919229065847
11.69999999999987,-67.33171545689298
11.724999999999868,-67.33423707649717
11.749999999999867,-67.33675715029653
11.774999999999865,-67.33927567911634
11.799999999999864,-67.34179266378169
11.824999999999863,-67.34430810511752
11.849999999999861,-67.34682200394856
11.87499999999986,-67.34933436109937
11.899999999999858,-67.3518451773943
11.924999999999857,-67.35435445365755
11.949999999999855,-67.35686219071313
11.974999999999854,-67.35936838938484
11.999999999999853,-67.36187305049631
12.024999999999851,-67.364376174871
12.04999999999985,-67.36687776333213
12.074999999999848,-67.36937781670277
12.099999999999847,-67.37187633580578
12.124999999999845,-67.37437332146386
12.149999999999844,-67.37686877449948
12.174999999999843,-67.37936269573497
12.199999999999841,-67.3818550859924
12.22499999999984,-67.3843459460937
12.249999999999838,-67.3868352768606
12.274999999999837,-67.3893230791146
12.299999999999836,-67.39180935367705
12.324999999999834,-67.39429410136908
12.349999999999833,-67.39677732301163
12.374999999999831,-67.39925901942544
12.39999999999983,-67.40173919143106
12.424999999999828,-67.40421783984884
12.449999999999827,-67.40669496549891
12.474999999999826,-67.40917056920125
12.499999999999824,-67.41164465177559
12.524999999999823,-67.41411721404147
12.549999999999821,-67.41658825681826
12.57499999999982,-67.4190577809251
12.599999999999818,-67.42152578718094
12.624999999999817,-67.4239922764045
12.649999999999816,-67.42645724941434
12.674999999999814,-67.4289207070288
12.699999999999813,-67.43138265006598
12.724999999999811,-67.43384307934383
12.74999999999981,-67.43630199568007
12.774999999999809,-67.4387593998922
12.799999999999807,-67.44121529279754
12.824999999999806,-67.44366967521317
12.849999999999804,-67.446122547956
12.874999999999803,-67.44857391184269
12.899999999999801,-67.45102376768973
12.9249999999998,-67.45347211631339
12.949999999999799,-67.45591895852971
12.974999999999797,-67.45836429515452
12.999999999999796,-67.46080812700346
13.024999999999794,-67.46325045489195
13.049999999999793,-67.4656912796352
13.074999999999791,-67.46813060204819
13.09999999999979,-67.4705684229457
