Time (ms),Soma Voltage (mV)
0.0,-66.0
0.025,-66.04537137431878
0.05,-66.12068997215553
0.075,-66.21783062474076
0.09999999999999999,-66.33076055822515
0.12499999999999999,-66.45500154060598
0.15,-66.58723035386016
0.17500000000000002,-66.72498196555345
0.20000000000000004,-66.86642898202574
0.22500000000000006,-67.01021777262507
0.25000000000000006,-67.15534670042028
0.2750000000000001,-67.30107563969389
0.3000000000000001,-67.44685874143045
0.3250000000000001,-67.59229447373463
0.35000000000000014,-67.73708849882975
0.37500000000000017,-67.88102608860821
0.4000000000000002,-68.02395162802837
0.4250000000000002,-68.16575338528116
0.45000000000000023,-68.30635219551918
0.47500000000000026,-68.4456930526113
0.5000000000000002,-68.58373886173584
0.5250000000000001,-68.72046579760178
0.55,-68.85585985574106
0.575,-68.98991429031749
0.5999999999999999,-69.12262771066462
0.6249999999999998,-69.25400266729402
0.6499999999999997,-69.3840446016056
0.6749999999999996,-69.51276106584744
0.6999999999999995,-69.64016114388501
0.7249999999999994,-69.76625502118166
0.7499999999999993,-69.89105366565039
0.7749999999999992,-70.01456859088765
0.7999999999999992,-70.13681168062026
0.8249999999999991,-70.25779505863497
0.849999999999999,-70.37753099250226
0.8749999999999989,-70.4960318224087
0.8999999999999988,-70.61330990864371
0.9249999999999987,-70.72937759294481
0.9499999999999986,-70.84424717013721
0.9749999999999985,-70.95793086741965
0.9999999999999984,-71.07044082932823
1.0249999999999984,-71.18178910691593
1.0499999999999983,-71.29198765006075
1.0749999999999982,-71.40104830209515
1.099999999999998,-71.50898279615635
1.124999999999998,-71.61580275281169
1.149999999999998,-71.72151967862752
1.1749999999999978,-71.82614496543535
1.1999999999999977,-71.92968989011236
1.2249999999999976,-72.03216561474022
1.2499999999999976,-72.13358318704134
1.2749999999999975,-72.23395354101734
1.2999999999999974,-72.33328749773432
1.3249999999999973,-72.43159576621323
1.3499999999999972,-72.52888894439505
1.3749999999999971,-72.62517752015758
1.399999999999997,-72.72047187236741
1.424999999999997,-72.81478227195429
1.4499999999999968,-72.90811888299875
1.4749999999999968,-73.00049176382632
1.4999999999999967,-73.09191086810301
1.5249999999999966,-73.18238604592874
1.5499999999999965,-73.27192704492573
1.5749999999999964,-73.36054351132019
1.5999999999999963,-73.4482449910156
1.6249999999999962,-73.5350409306569
1.6499999999999961,-73.62094067868463
1.674999999999996,-73.70595348637869
1.699999999999996,-73.79008850889143
1.7249999999999959,-73.87335480626977
1.7499999999999958,-73.95576134446637
1.7749999999999957,-74.0373169963397
1.7999999999999956,-74.11803054264321
1.8249999999999955,-74.19791067300338
1.8499999999999954,-74.27696598688698
1.8749999999999953,-74.35520499455748
1.8999999999999952,-74.43263611802081
1.9249999999999952,-74.50926769196045
1.949999999999995,-74.5851079646621
1.974999999999995,-74.66016509892803
1.999999999999995,-74.73444717298116
2.024999999999995,-74.80796218135903
2.0499999999999954,-74.88071803579784
2.0749999999999957,-74.9527225661066
2.099999999999996,-75.02398352103155
2.1249999999999964,-75.094508569111
2.149999999999997,-75.16430529952059
2.174999999999997,-75.23338122290932
2.1999999999999975,-75.30174377222617
2.224999999999998,-75.36940030353773
2.2499999999999982,-75.43635809683657
2.2749999999999986,-75.50262435684095
2.299999999999999,-75.56820621378556
2.3249999999999993,-75.63311072420356
2.3499999999999996,-75.69734487170011
2.375,-75.76091556771726
2.4000000000000004,-75.82382965229063
2.4250000000000007,-75.88609389479758
2.450000000000001,-75.94771499469744
2.4750000000000014,-76.0086995822634
2.5000000000000018,-76.0690542193066
2.525000000000002,-76.12878539989214
2.5500000000000025,-76.18789955104748
2.575000000000003,-76.24640303346294
2.600000000000003,-76.30430214218467
2.6250000000000036,-76.36160310730011
2.650000000000004,-76.41831209461594
2.6750000000000043,-76.4744352063287
2.7000000000000046,-76.52997848169211
2.725000000000005,-76.58494789768491
2.7500000000000053,-76.63934936963621
2.7750000000000057,-76.69318875186994
2.800000000000006,-76.74647183834185
2.8250000000000064,-76.799204363269
2.8500000000000068,-76.85139200175217
2.875000000000007,-76.90304037039134
2.9000000000000075,-76.95415502789429
2.925000000000008,-77.00474147567857
2.950000000000008,-77.05480515846693
2.9750000000000085,-77.10435146487617
3.000000000000009,-77.15338572799978
3.0250000000000092,-77.20191322598419
3.0500000000000096,-77.24993918259887
3.07500000000001,-77.2974687678003
3.1000000000000103,-77.34450709828992
3.1250000000000107,-77.39105923806613
3.150000000000011,-77.43713019897031
3.1750000000000114,-77.48272494122713
3.2000000000000117,-77.52784837397904
3.225000000000012,-77.57250535581507
3.2500000000000124,-77.61670069529403
3.275000000000013,-77.66043915146214
3.300000000000013,-77.70372543436521
3.3250000000000135,-77.74656420555527
3.350000000000014,-77.78896007859198
3.375000000000014,-77.83091761953862
3.4000000000000146,-77.87244134745289
3.425000000000015,-77.91353573487247
3.4500000000000153,-77.9542052082955
3.4750000000000156,-77.99445414865602
3.500000000000016,-78.03428689179427
3.5250000000000163,-78.07370772892212
3.5500000000000167,-78.11272090708361
3.575000000000017,-78.15133062961063
3.6000000000000174,-78.18954105657373
3.6250000000000178,-78.2273563052283
3.650000000000018,-78.264780450456
3.6750000000000185,-78.30181752520159
3.700000000000019,-78.3384715209051
3.725000000000019,-78.37474638792963
3.7500000000000195,-78.41064603598446
3.77500000000002,-78.44617433454388
3.8000000000000203,-78.48133511326162
3.8250000000000206,-78.51613216238084
3.850000000000021,-78.55056923314001
3.8750000000000213,-78.58465003817437
3.9000000000000217,-78.61837825191333
3.925000000000022,-78.65175751097365
3.9500000000000224,-78.68479141454858
3.9750000000000227,-78.71748352479287
4.000000000000023,-78.74983736720384
4.0250000000000234,-78.78185643099845
4.050000000000024,-78.81354416948643
4.075000000000024,-78.84490400043961
4.1000000000000245,-78.87593930645728
4.125000000000025,-78.90665343532787
4.150000000000025,-78.93704970038681
4.175000000000026,-78.96713138087074
4.200000000000026,-78.99690172226796
4.225000000000026,-79.02636393666532
4.250000000000027,-79.05552120309146
4.275000000000027,-79.08437666785655
4.300000000000027,-79.11293344488847
4.325000000000028,-79.14119461606553
4.350000000000028,-79.16916323154572
4.375000000000028,-79.19684231009262
4.400000000000029,-79.22423483939784
4.425000000000029,-79.25134377640026
4.4500000000000295,-79.27817204760184
4.47500000000003,-79.30472254938024
4.50000000000003,-79.33099814829826
4.5250000000000306,-79.35700168140993
4.550000000000031,-79.38273595656362
4.575000000000031,-79.40820375270194
4.600000000000032,-79.4334078201585
4.625000000000032,-79.45835088095174
4.650000000000032,-79.48303562907566
4.675000000000033,-79.50746473078748
4.700000000000033,-79.53164082489249
4.725000000000033,-79.55556652302592
4.750000000000034,-79.57924440993177
4.775000000000034,-79.60267704373902
4.8000000000000345,-79.62586695623479
4.825000000000035,-79.64881665313479
4.850000000000035,-79.67152861435098
4.8750000000000355,-79.69400529425646
4.900000000000036,-79.71624912194764
4.925000000000036,-79.73826250150377
4.950000000000037,-79.7600478122437
4.975000000000037,-79.7816074089801
5.000000000000037,-79.80294362227102
5.025000000000038,-79.82405875866891
5.050000000000038,-79.84495510096706
5.075000000000038,-79.86563490844347
5.100000000000039,-79.8861004171023
5.125000000000039,-79.90635383991278
5.150000000000039,-79.92639736704574
5.17500000000004,-79.94623316610758
5.20000000000004,-79.96586338237202
5.2250000000000405,-79.98529013900935
5.250000000000041,-80.00451553731338
5.275000000000041,-80.02354165692601
5.300000000000042,-80.0423705560596
5.325000000000042,-80.06100427171695
5.350000000000042,-80.07944481990914
5.375000000000043,-80.09769419587101
5.400000000000043,-80.11575437427457
5.425000000000043,-80.13362730944009
5.450000000000044,-80.15131493554513
5.475000000000044,-80.16881916683143
5.500000000000044,-80.18614189780956
5.525000000000045,-80.20328500346169
5.550000000000045,-80.220250339442
5.5750000000000455,-80.23703974227536
5.600000000000046,-80.25365502955366
5.625000000000046,-80.2700980001304
5.6500000000000465,-80.28637043431313
5.675000000000047,-80.30247409405395
5.700000000000047,-80.31841072313811
5.725000000000048,-80.3341820473706
5.750000000000048,-80.34978977476091
5.775000000000048,-80.36523559570584
5.800000000000049,-80.3805211831705
5.825000000000049,-80.3956481928674
5.850000000000049,-80.41061826343373
5.87500000000005,-80.42543301660683
5.90000000000005,-80.44009405739786
5.9250000000000504,-80.45460297426371
5.950000000000051,-80.46896133927713
5.975000000000051,-80.48317070829512
6.0000000000000515,-80.4972326211256
6.025000000000052,-80.51114860169241
6.050000000000052,-80.52492015819855
6.075000000000053,-80.53854878328782
6.100000000000053,-80.55203595420477
6.125000000000053,-80.565383132953
6.150000000000054,-80.57859176645191
6.175000000000054,-80.59166328669176
6.200000000000054,-80.60459911088716
6.225000000000055,-80.61740064162912
6.250000000000055,-80.63006926703528
6.275000000000055,-80.64260636089888
6.300000000000056,-80.65501328283604
6.325000000000056,-80.66729137843156
6.3500000000000565,-80.67944197938328
6.375000000000057,-80.69146640364491
6.400000000000057,-80.70336595556742
6.4250000000000576,-80.71514192603895
6.450000000000058,-80.7267955926234
6.475000000000058,-80.73832821969742
6.500000000000059,-80.74974105858615
6.525000000000059,-80.76103534769753
6.550000000000059,-80.77221231265516
6.57500000000006,-80.78327316642994
6.60000000000006,-80.79421910947022
6.62500000000006,-80.80505132983075
6.650000000000061,-80.81577100330014
6.675000000000061,-80.82637929352725
6.7000000000000615,-80.83687735214603
6.725000000000062,-80.84726631889927
6.750000000000062,-80.857547321761
6.7750000000000625,-80.86772147705767
6.800000000000063,-80.87778988958804
6.825000000000063,-80.88775365274189
6.850000000000064,-80.89761384861751
6.875000000000064,-80.90737154813796
6.900000000000064,-80.91702781116615
6.925000000000065,-80.92658368661877
6.950000000000065,-80.93604021257897
6.975000000000065,-80.94539841640803
7.000000000000066,-80.9546593148557
7.025000000000066,-80.9638239141696
7.050000000000066,-80.97289321020331
7.075000000000067,-80.98186818852353
7.100000000000067,-80.99074982451603
7.1250000000000675,-80.99953908349053
7.150000000000068,-81.00823692078453
7.175000000000068,-81.01684428186604
7.200000000000069,-81.02536210243534
7.225000000000069,-81.03379130852557
7.250000000000069,-81.04213281660239
7.27500000000007,-81.05038753366257
7.30000000000007,-81.05855635733161
7.32500000000007,-81.06664017596027
7.350000000000071,-81.07463986872024
7.375000000000071,-81.08255630569869
7.400000000000071,-81.09039034799198
7.425000000000072,-81.09814284779831
7.450000000000072,-81.10581464850948
7.4750000000000725,-81.11340658480164
7.500000000000073,-81.1209194827252
7.525000000000073,-81.12835415979377
7.5500000000000735,-81.13571142507216
7.575000000000074,-81.1429920792635
7.600000000000074,-81.15019691479547
7.625000000000075,-81.15732671590573
7.650000000000075,-81.16438225872623
7.675000000000075,-81.17136431136696
7.700000000000076,-81.17827363399859
7.725000000000076,-81.18511097893442
7.750000000000076,-81.1918770907114
7.775000000000077,-81.19857270617038
7.800000000000077,-81.20519855453547
7.8250000000000774,-81.21175535749262
7.850000000000078,-81.21824382926742
7.875000000000078,-81.22466467670208
7.9000000000000785,-81.23101859933153
7.925000000000079,-81.23730628945896
7.950000000000079,-81.24352843223028
7.97500000000008,-81.2496857057081
8.00000000000008,-81.25577878094478
8.025000000000079,-81.26180832205479
8.050000000000077,-81.2677749862863
8.075000000000076,-81.27367942409205
8.100000000000074,-81.2795222791995
8.125000000000073,-81.2853041886802
8.150000000000071,-81.29102578301857
8.17500000000007,-81.29668768617984
8.200000000000069,-81.30229051567737
8.225000000000067,-81.30783488263924
8.250000000000066,-81.31332139187417
8.275000000000064,-81.31875064193679
8.300000000000063,-81.32412322519215
8.325000000000061,-81.32943972787973
8.35000000000006,-81.33470073017658
8.375000000000059,-81.33990680625996
8.400000000000057,-81.34505852436932
8.425000000000056,-81.35015644686757
8.450000000000054,-81.3552011303018
8.475000000000053,-81.36019312546333
8.500000000000052,-81.36513297744715
8.52500000000005,-81.37002122571074
8.550000000000049,-81.37485840413233
8.575000000000047,-81.37964504106849
8.600000000000046,-81.38438165941116
8.625000000000044,-81.38906877664414
8.650000000000043,-81.39370690489889
8.675000000000042,-81.39829655100988
8.70000000000004,-81.40283821656925
8.725000000000039,-81.40733239798104
8.750000000000037,-81.4117795865147
8.775000000000036,-81.4161802683582
8.800000000000034,-81.42053492467053
8.825000000000033,-81.4248440316336
8.850000000000032,-81.42910806050372
8.87500000000003,-81.43332747766249
8.900000000000029,-81.43750274466711
8.925000000000027,-81.44163431830033
8.950000000000026,-81.44572265061969
8.975000000000025,-81.44976818900639
9.000000000000023,-81.45377137621364
9.025000000000022,-81.45773265041443
9.05000000000002,-81.46165244524892
9.075000000000019,-81.46553118987124
9.100000000000017,-81.4693693089959
9.125000000000016,-81.4731672229436
9.150000000000015,-81.47692534768674
9.175000000000013,-81.4806440948943
9.200000000000012,-81.48432387197631
9.22500000000001,-81.48796508212794
9.250000000000009,-81.49156812437298
9.275000000000007,-81.49513339360702
9.300000000000006,-81.49866128064012
9.325000000000005,-81.50215217223902
9.350000000000003,-81.50560645116896
9.375000000000002,-81.50902449623501
9.4,-81.51240668232306
9.424999999999999,-81.51575338044032
9.449999999999998,-81.51906495775539
9.474999999999996,-81.522341777638
9.499999999999995,-81.52558419969827
9.524999999999993,-81.52879257982553
9.549999999999992,-81.53196727022686
9.57499999999999,-81.53510861946512
9.599999999999989,-81.53821697249667
9.624999999999988,-81.54129267070863
9.649999999999986,-81.54433605195581
9.674999999999985,-81.54734745059719
9.699999999999983,-81.55032719753214
9.724999999999982,-81.55327562023614
9.74999999999998,-81.55619304279621
9.774999999999979,-81.55907978594597
9.799999999999978,-81.56193616710027
9.824999999999976,-81.56476250038958
9.849999999999975,-81.56755909669387
9.874999999999973,-81.57032626367631
9.899999999999972,-81.5730643058165
9.92499999999997,-81.5757735244434
9.949999999999969,-81.57845421776793
9.974999999999968,-81.58110668091518
9.999999999999966,-81.58373120595641
10.024999999999965,-81.58632808194055
10.049999999999963,-81.5888975949255
10.074999999999962,-81.59144002800906
10.09999999999996,-81.59395566135957
10.12499999999996,-81.5964447722462
10.149999999999958,-81.59890763506891
10.174999999999956,-81.60134452138817
10.199999999999955,-81.60375569995435
10.224999999999953,-81.6061414367367
10.249999999999952,-81.60850199495225
10.27499999999995,-81.61083763509416
10.29999999999995,-81.61314861495997
10.324999999999948,-81.61543518967949
10.349999999999946,-81.61769761174234
10.374999999999945,-81.61993613102536
10.399999999999944,-81.62215099481952
10.424999999999942,-81.62434244785678
10.44999999999994,-81.62651073233651
10.47499999999994,-81.62865608795173
10.499999999999938,-81.63077875191499
10.524999999999936,-81.63287895898408
10.549999999999935,-81.6349569414874
10.574999999999934,-81.63701292934913
10.599999999999932,-81.63904715011407
10.62499999999993,-81.64105982897227
10.64999999999993,-81.64305118878343
10.674999999999928,-81.64502145010096
10.699999999999926,-81.64697083119587
10.724999999999925,-81.6488995480804
10.749999999999924,-81.65080781453135
10.774999999999922,-81.65269584211326
10.79999999999992,-81.65456384020129
10.82499999999992,-81.65641201600387
10.849999999999918,-81.65824057458511
10.874999999999917,-81.66004971888698
10.899999999999915,-81.66183964975134
10.924999999999914,-81.66361056594161
10.949999999999912,-81.66536266416428
10.97499999999991,-81.6670961390902
10.99999999999991,-81.66881118337571
11.024999999999908,-81.67050798768337
11.049999999999907,-81.6721867407027
11.074999999999905,-81.67384762917057
11.099999999999904,-81.67549083789135
11.124999999999902,-81.677116549757
11.1499999999999,-81.67872494576682
11.1749999999999,-81.680316205047
11.199999999999898,-81.68189050487011
11.224999999999897,-81.68344802067415
11.249999999999895,-81.68498892608164
11.274999999999894,-81.68651339291839
11.299999999999892,-81.68802159123204
11.324999999999891,-81.68951368931056
11.34999999999989,-81.69098985370036
11.374999999999888,-81.69245024922441
11.399999999999887,-81.69389503900001
11.424999999999885,-81.69532438445647
11.449999999999884,-81.69673844535258
11.474999999999882,-81.6981373797939
11.499999999999881,-81.69952134424989
11.52499999999988,-81.7008904935708
11.549999999999878,-81.70224498100447
11.574999999999877,-81.70358495821293
11.599999999999875,-81.70491057528874
11.624999999999874,-81.70622198077132
11.649999999999872,-81.70751932166297
11.674999999999871,-81.70880274344483
11.69999999999987,-81.71007239009258
11.724999999999868,-81.71132840409203
11.749999999999867,-81.71257092645457
11.774999999999865,-81.71380009673243
11.799999999999864,-81.71501605303372
11.824999999999863,-81.71621893203748
11.849999999999861,-81.71740886900841
11.87499999999986,-81.71858599781152
11.899999999999858,-81.7197504509266
11.924999999999857,-81.72090235946261
11.949999999999855,-81.72204185317186
11.974999999999854,-81.72316906046397
11.999999999999853,-81.72428410841991
12.024999999999851,-81.72538712280563
12.04999999999985,-81.72647822808575
12.074999999999848,-81.72755754743699
12.099999999999847,-81.7286252027615
12.124999999999845,-81.72968131470013
12.149999999999844,-81.73072600264535
12.174999999999843,-81.73175938475433
12.199999999999841,-81.73278157796157
12.22499999999984,-81.73379269799172
12.249999999999838,-81.73479285937195
12.274999999999837,-81.73578217544447
12.299999999999836,-81.73676075837874
12.324999999999834,-81.73772871918358
12.349999999999833,-81.73868616771925
12.374999999999831,-81.73963321270932
12.39999999999983,-81.74056996175243
12.424999999999828,-81.74149652133391
12.449999999999827,-81.74241299683737
12.474999999999826,-81.74331949255605
12.499999999999824,-81.74421611170412
12.524999999999823,-81.74510295642786
12.549999999999821,-81.74598012781671
12.57499999999982,-81.74684772591424
12.599999999999818,-81.74770584972893
12.624999999999817,-81.7485545972449
12.649999999999816,-81.74939406543255
12.674999999999814,-81.75022435025902
12.699999999999813,-81.75104554669858
12.724999999999811,-81.75185774874289
12.74999999999981,-81.75266104941124
12.774999999999809,-81.75345554076056
12.799999999999807,-81.75424131389536
12.824999999999806,-81.7550184589777
12.849999999999804,-81.7557870652368
12.874999999999803,-81.75654722097883
12.899999999999801,-81.75729901359638
12.9249999999998,-81.75804252957795
12.949999999999799,-81.7587778545173
12.974999999999797,-81.75950507312274
12.999999999999796,-81.76022426922626
13.024999999999794,-81.76093552579263
13.049999999999793,-81.76163892492838
13.074999999999791,-81.76233454789063
13.09999999999979,-81.76302247509598
